hart
3.162228482959704e-05
6.737835328049046e-05
0.00010752480062825413
0.0001523254542561321
0.00020205146681116402
0.00025698127374655796
0.0003174003733038334
0.00038360089026542366
0.0004558808964750514
0.0005345434810616323
0.0006198955890500785
0.0007122466744588113
0.0008119072388081247
0.0009191873447380364
0.0010343952042331582
0.0011578359390213124
0.0012898105949593459
0.001430615462672106
0.0015805417168038077
0.0017398753425951815
0.0019088972790781745
0.002087883680359202
0.0022771061854609228
0.0024768320945555175
0.0026873243723588747
0.002908841432158605
0.003141636689816216
0.0033859579103081264
0.003642046395684897
0.003910136080307162
0.004190452605835182
0.004483212444469406
0.004788622124814287
0.005106877592282783
0.005438163709092969
0.005782653873430237
0.006140509718790617
0.006511880845040454
0.0068969045297065535
0.007295705366135082
0.007708394770295089
0.00813507029012781
0.008575814644479296
0.009030694418577456
0.009499758354525585
0.009983035200760906
0.010480531123432885
0.010992226732384666
0.011518073830421634
0.012057992051370953
0.012611865603785131
0.01317954037599665
0.01376082167729181
0.014355472882675588
0.014963215210603396
0.015583728793672064
0.016216655106546417
0.01686160070420695
0.017518142112309544
0.018185831616576803
0.018864203631715464
0.019552781293999396
0.020251082904702396
0.02095862783651697
0.021674941489024983
0.022399558845132728
0.023132026160522737
0.023871900347540356
0.024618745726809804
0.02537212803101601
0.02613160584502965
0.026896720013182066
0.027666981870751187
0.02844186138504791
0.029220776356642365
0.030003083704039937
0.03078807355681381
0.03157496648087335
0.03236291374674743
0.03315100021084132
0.03393824916089229
0.034723628390294144
0.035506056790815387
0.03628441085550075
0.03705753063081583
0.037824224824514655
0.038583274943518195
0.03933343848526715
0.04007345131785892
0.040802029445294055
0.04151787036107785
0.042219654154346184
0.042906044464120226
0.04357568930016452
0.044227221684207
0.04485926002917653
0.04547040817414629
0.04605925502685824
0.046624373824076394
0.047164321087472906
0.0476776354124379
0.04816283626508233
0.04861842297172988
0.04904287406744495
0.04943464713487866
0.04979217922269595
0.05011388788975896
0.05039817287530227
0.05064341834162024
0.050847995575417575
0.05101026597967284
0.051128584159616595
0.051201300918170836
0.051226766024389504
0.05120333068266955
0.05112934968643752
0.05100318327374563
0.0508231987152639
0.05058777166887472
0.0502952873410999
0.049944141508413274
0.049532741467305866
0.049059506992637066
0.04852287138309333
0.04792128266004709
0.04725320496683212
0.04651712019596752
0.04571152985583868
0.044834957175141486
0.04388594943075405
0.042863080471674586
0.04176495339980259
0.040590203359799557
0.03933750038612889
0.03800555225561104
0.03659310729882331
0.03509895713461292
0.03352193930964674
0.03186093984754252
0.03011489573416454
0.02828279737843248
0.02636369108411792
0.02435668154628509
0.022260934352725643
0.02007567843623829
0.017800208396868755
0.015433886600144709
0.012976144962981793
0.010426486368543932
0.007784485706697227
0.005049790610517819
0.0022221220347311554
-0.0006987251218242397
-0.003712881127109606
-0.0068204000608993445
-0.010021257860558177
-0.01331534973245602
-0.016702487005535258
-0.020182393604595474
-0.023754702388610854
-0.027418951619491504
-0.031174581796718545
-0.0350209330218351
-0.03895724295928847
-0.04298264535608558
-0.04709616899358497
-0.05129673689044813
-0.05558316556797918
-0.05995416422546521
-0.0644083337377135
-0.0689441654574828
-0.07356003986221953
-0.07825422511652423
-0.08302487562734776
-0.08787003065343331
-0.09278761300286331
-0.09777542782283037
-0.10283116146322628
-0.10795238038732864
-0.11313653011197125
-0.11838093418419705
-0.12368279323380929
-0.1290391841696619
-0.13444705959994938
-0.13990324754640746
-0.14540445148984205
-0.15094725073726076
-0.15652810105040207
-0.16214333543401557
-0.16778916496032226
-0.17346167951000288
-0.17915684834073622
-0.18487052044707378
-0.19059842473912045
-0.19633617012613772
-0.20207924562762739
-0.20782302063741592
-0.21356274543560766
-0.2192935519908246
-0.22501045503920988
-0.2307083533844523
-0.23638203134501273
-0.24202616028209356
-0.24763530016770768
-0.25320390118543196
-0.2587263053860871
-0.2641967484400829
-0.26960936153589266
-0.2749581734713324
-0.28023711297186893
-0.2854400112486986
-0.2905606047814307
-0.29559253828176796
-0.30052936777198735
-0.3053645636991526
-0.3100915140035484
-0.31470352706844795
-0.31919383450046546
-0.3235555937278158
-0.3277818904543409
-0.33186574105822125
-0.3358000950595679
-0.33957783778880574
-0.34319179336646044
-0.3466347280635008
-0.34989935406256684
-0.3529783335949669
-0.3558642833917091
-0.35854977936097265
-0.3610273613897718
-0.36328953816489673
-0.3653287919188278
-0.36713758303149713
-0.3687083544572168
-0.37003353599108835
-0.3711055484278879
-0.3719168076849496
-0.3724597289523063
-0.3727267309040626
-0.37271023997032954
-0.37240269464709774
-0.3717965498236788
-0.3708842811332833
-0.3696583893685004
-0.36811140503024165
-0.3662358930796197
-0.3640244579325324
-0.36146974868536913
-0.35856446450640517
-0.3553013600917913
-0.35167325108116876
-0.3476730193563046
-0.34329361819430065
-0.338528077295176
-0.33336950773392676
-0.32781110689058435
-0.321846163391456
-0.31546806206253325
-0.3086702888662601
-0.30144643577549646
-0.2937902055372835
-0.28569541629223005
-0.27715600603878804
-0.2681660369600966
-0.2587196996590309
-0.24881131736935075
-0.238435350222553
-0.22758639964697366
-0.21625921295592626
-0.20444868814681588
-0.19214987888919927
-0.1793579996358229
-0.16606843075741196
-0.1522767235876503
-0.13797860527234368
-0.12316998334203416
-0.1078469499610801
-0.09200578583758708
-0.07564296380065987
-0.058755152063734314
-0.041339217200465954
-0.02339222686785447
-0.004911452320736991
0.014105629231174779
0.03366133237057292
0.053757761271774285
0.07439680749714817
0.09558014772824126
0.11730924136115957
0.13958532789846673
0.16240942409207768
0.1857823208351598
0.20970457985886135
0.23417653034920308
0.25919826564630805
0.28476964021059814
0.31089026703237593
0.3375595156237549
0.3647765106735294
0.3925401313784815
0.42084901139995223
0.44970153933938584
0.4790958595836366
0.5090298733417131
0.5395012396830057
0.5705073763998655
0.6020454605604821
0.6341124286894047
0.6667049765987991
0.6998195589716631
0.7334523888471508
0.767599437165886
0.8022564325016944
0.8374188610513728
0.8730819668990585
0.9092407525373898
0.9458899796236653
0.9830241699713832
1.020637606811057
1.0587243363821737
1.0972781699272116
1.1362926861430522
1.1757612341065387
1.2156769366382205
1.2560326940138284
1.2968211878898555
1.3380348852878274
1.379666042487947
1.4217067087176598
1.464148729579593
1.5069837502348973
1.5502032184272705
1.5937983874843427
1.6377603194565187
1.6820798885460446
1.7267477849461401
1.7717545191607602
1.81709042681981
1.8627456739493906
1.9087102626065853
1.9549740367472477
2.001526688167769
2.048357762352338
2.0954566640685663
2.1428126625860897
2.190414896440403
2.238252377719641
2.286313995903602
2.3345885213219915
2.3830646083194678
2.431730798226822
2.4805755222568653
2.5295871044840186
2.5787537651273595
2.6280636244196858
2.677504707381761
2.727064949807919
2.7767322056991075
2.8264942562634547
2.876338820466609
2.9262535669805603
2.976226127267777
3.0262441094505568
-2.878377174651926
-2.823047529377343
-2.768067181539156
-2.714028695878822
-2.6615186110517417
-2.6110907675594732
-2.56323521804734
-2.5183441387938537
-2.4766775940468624
-2.4383332149402412
-2.403224419210021
-2.3710714745868184
-2.3414085874878734
-2.3136085369458126
-2.2869243526817113
-2.2605452469159744
-2.2336616305084345
-2.20553200272692
-2.175543420029733
-2.1432576115768627
-2.10843669238461
-2.0710455148944926
-2.0312314181471174
-1.989285680426252
-1.9455935333550598
-1.9005806852748641
-1.8546639524174715
-1.8082121340802828
-1.7615211346187358
-1.7148049728157628
-1.6682020418727015
-1.6217939441203304
-1.5756325428649123
-1.5297697743984968
-1.4842845809520173
-1.439302302134254
-1.3950037993668891
-1.3516237130650663
-1.3094386305666446
-1.2687461429661306
-1.2298351624321215
-1.1929473306686103
-1.158229638106873
-1.1256797113133288
-1.0950872947277557
-1.0659776833725716
-1.0375646919372086
-1.0087217563079633
-0.9779797416289404
-0.9435589121411933
-0.9034402895223967
-0.8554783031515124
-0.7975523292483171
-0.7277497174974203
-0.6445677443905145
-0.5471174132972593
-0.4353091329629811
-0.30999997850365124
-0.17308501600947276
-0.027520864276062755
0.12272297439123346
0.2727826816150159
0.41708231168028753
0.5495732044906249
0.6640265947269633
0.7543769416384378
0.8151106609720487
0.8416859126444846
0.830955026285694
0.7815458893404587
0.6941476111598803
0.5716444309897811
0.4190537906551155
0.24324995244814923
0.05248931923223871
-0.14421050284892534
-0.3377588189835024
-0.5196577859322307
-0.6825657810600853
-0.8207019984118279
-0.9300672222475228
-1.0084851393119765
-1.0554904123992455
-1.0721023113027333
-1.0605273279584075
-1.0238332440206686
-0.9656322308529866
-0.889802390107891
-0.8002662267676005
-0.7008322751915053
-0.5950946733707279
-0.4863770201402623
-0.37770264628774247
-0.2717738211909608
-0.1709468467426045
-0.07719702470814893
0.00792488243565124
0.08333677747236111
0.1484584335808158
0.2032220698348532
0.2480516758789264
0.28380789180842403
0.3117013592124938
0.3331824066389294
0.34981746470715575
0.3631627203506136
0.3746444607036174
0.3854548964180601
0.3964725203998579
0.40821601274709607
0.4208381838774129
0.4341604241915676
0.44774021133332964
0.4609580104553414
0.4731084037474701
0.48348367290933786
0.49144373982812084
0.4964711176605649
0.4982115540105472
0.496500642354163
0.49137546670904775
0.48307001809721856
0.47199437426387586
0.45869991203721433
0.44383488261564513
0.4280955005226739
0.4121771407365084
0.3967290312782937
0.3823148516490978
0.3693812103544937
0.35823573938240133
0.34903604149420864
0.34178985960203745
0.3363658759010125
0.33251371025870624
0.32989089272678
0.32809367969953185
0.32668767260724474
0.3252337535843324
0.32330555649250164
0.3204969620154739
0.3164215095967366
0.3107088231713975
0.30300470903692556
0.29298095508733957
0.2803585767887332
0.2649451123198071
0.2466828538839327
0.22570067916941605
0.20235817575630655
0.17726871982548398
0.1512896912267367
0.12547333937690017
0.10097966579875156
0.07896108462509974
0.0604356842541514
0.04617002065429538
0.03659225623774432
0.03175166505226704
0.03133191499043455
0.03471521442641683
0.041084935883656436
0.04954772258479344
0.05925336168234773
0.06949215278627019
0.07975497704434274
0.08974994510847151
0.09937935860422932
0.10868889395395666
0.11780498873730798
0.1268756457375417
0.1360253874488556
0.14532900092047785
0.15480302638229534
0.16440996122329335
0.1740683841349862
0.18366260075394675
0.19304756435006892
0.2020480636185107
0.21045461914224867
0.2180211726159591
0.2244704876337165
0.2295116253370907
0.23287021904560498
0.23432777930603305
0.23376248830936744
0.23118209305545145
0.22674010037512152
0.22072939572382866
0.21355199061097271
0.20566881957550218
0.19753823794560912
0.18955504624377942
0.18200248335886002
0.17502703531697184
0.16864034258138277
0.16274543321813706
0.15717832962795816
0.15175294963987274
0.14629802323892963
0.14067878290346625
0.1348017464806876
0.1286060330959638
0.1220478241875097
0.11508520302625999
0.1076690512629272
0.09974301121693764
0.09125286819227196
0.08216360378802431
0.07248071038476607
0.06227103316663454
0.051677790897538316
0.040925024320875636
0.030308498674833463
0.02017238780908904
0.010873238231806233
0.002734706577871946
-0.0040012342281715
-0.009218599026685245
-0.012957853873293996
-0.015424355038045755
-0.016970728774904447
-0.018055065858472094
-0.019182224426414218
-0.020838582987250887
-0.02343074466228026
-0.02723675143906533
-0.03237554323180949
-0.038797530638872146
-0.04629651507322477
-0.05454073581605447
-0.06311843633041571
-0.07159105415935245
-0.07954541595402906
-0.08663615591236253
-0.09261191996290723
-0.09732363404978497
-0.10071850946347598
-0.10282708430338983
-0.10375075809382878
-0.10365397100097486
-0.10276006457179049
-0.10134550482721486
-0.09972587524056958
-0.09822971162253769
-0.0971617024772095
-0.09676245382636156
-0.09717522730429275
-0.0984292059136972
-0.10044409932757785
-0.10305415540743218
-0.10604365422544408
-0.10918311923521196
-0.11225677753688375
-0.1150764216688083
-0.11748258786130397
-0.11933843060643883
-0.12052329485044914
-0.1209316834964034
-0.12048021818291112
-0.11912177941922142
-0.11686333096350111
-0.11378240814361495
-0.11003694294870861
-0.1058638995192126
-0.10156391021128325
-0.09747155400177646
-0.09391385975338647
-0.09116254886506303
-0.08938773765882754
-0.0886215918612193
-0.08873928697844213
-0.0894615823592295
-0.09037903975269
-0.09099363077068633
-0.09077050701110055
-0.08919192974095713
-0.08580675610752776
-0.08027148471199148
-0.07238124614200774
-0.062090278749734835
-0.04952146256719297
-0.03496439585079055
-0.01886210529271394
-0.00178752504800134
0.015588670438901057
0.032537992160554
0.0483220048596015
0.06224824800102565
0.07373224168654278
0.08236010708144235
0.08794299384376758
0.09055295056485413
0.09053098828854873
0.08846182624435181
0.08511535913416578
0.08136091985695859
0.07806540322578652
0.07598902470349266
0.07569246852815344
0.0774669380812051
0.08129523970717736
0.08684847544630472
0.09351948242954461
0.10049041818948407
0.10682733396938618
0.11158952611953918
0.11393750924782245
0.11322273154195273
0.10904581480515001
0.10127746389691482
0.0900449743313333
0.07569454968767958
0.058742982793084826
0.039830713909050956
0.019682903086653766
-0.0009214545812907753
-0.02117731104065067
-0.040284752975974426
-0.05748819904351042
-0.0721240321383778
-0.08367230655981837
-0.09180436071509836
-0.09641651763059556
-0.09764106250570936
-0.09582906405491934
-0.09150455349248496
-0.08529509653840342
-0.07784880976081067
-0.0697512540550109
-0.061456401923694094
-0.05324355491430309
-0.045207085482603944
-0.037279477949829574
-0.02928204396482001
-0.02099332005409332
-0.012223177600400141
-0.00288086321566043
0.00697321258397823
0.017099774024009397
0.027082043802955535
0.0363577538118292
0.04427954377971235
0.05019761656931862
0.053555256315516074
0.05398584478140349
0.051399952922117284
0.04605326150747786
0.0385899871760672
0.03006054906978507
0.021914236788072403
0.015966339845963087
0.014335494901756061
0.019343932331138066
0.033374153212834295
0.058681659037688697
0.09717311955907881
0.15016926387276475
0.21817819634475927
0.30070572178453087
0.396124903034939
0.5016197870759496
0.6132111175881316
0.7258672364238729
0.8336740274284241
0.9302073746137139
1.0088149013550196
1.063098306799667
1.087419346030278
1.0774192511569742
1.030491516992189
0.9461380286448529
0.8261434208263712
0.6745246479939024
0.4972483300306003
0.30174865426571906
0.09631244381060224
-0.11058361850904472
-0.31089928626183005
-0.49755301219851816
-0.6647981122027502
-0.8084369393552056
-0.9258785597425996
-1.0160601846701143
-1.0792615771896004
-1.116846399797106
-1.1309660817543952
-1.124260609718884
-1.0995866219707668
-1.0597962834309138
-1.0075811288045162
-0.9453846741854721
-0.8753779075362315
-0.7994843400345442
-0.7194368598720563
-0.6368470081460268
-0.5532679352553053
-0.4702349666633011
-0.38927271089537535
-0.31186508132282603
-0.2393934326452529
-0.17305602108079332
-0.11378678886804766
-0.06219160392196544
-0.018515652159114673
0.01735181622895829
0.045837542387886905
0.0676183582436398
0.0835427494185665
0.09455360865815302
0.10162235270997956
0.10569849161770324
0.10767261206583312
0.10834715520122716
0.10840961859623421
0.10840617691213504
0.10871804401744993
0.1095459063908983
0.11090813153023191
0.11265624227861899
0.1145074466494854
0.11609027495648175
0.11699676731805221
0.11683378795547551
0.11526698916914661
0.11205326859548323
0.10706038261935064
0.10027467234618549
0.09179891183845583
0.08184204902933692
0.07070169138378006
0.05873951688798009
0.046350084791140646
0.03392486100754896
0.021815050539171352
0.010298166831744459
-0.00044643684930745925
-0.010348737750614224
-0.019443507458189943
-0.027850362901867678
-0.03574172373817273
-0.04330461074115085
-0.05070361059421781
-0.05805204114480569
-0.06539649244896734
-0.07271697209584563
-0.07994139283233359
-0.08696970615357777
-0.09370046959924609
-0.1000521128586492
-0.1059733243535755
-0.11144135893241958
-0.11645193313153682
-0.12100746815887743
-0.1251101560055429
-0.1287626277590529
-0.131973657388759
-0.13476222211204872
-0.13715289235007588
-0.1391595097727576
-0.14076043330890317
-0.1418738318426461
-0.14234283198127856
-0.14193734461161353
-0.14037388358412245
-0.1373493329950489
-0.13258148135554793
-0.12584884280928713
-0.1170240546808441
-0.10609748652359659
-0.09318936257314987
-0.07854939474637429
-0.06254324035587623
-0.04562577903172226
-0.028302605977997487
-0.011083228359353032
0.005568156319138313
0.02127653575543587
0.03578654970999737
0.04897355613884153
0.06083355584521489
0.07145530003719078
0.08098183834044735
0.08957014465729551
0.09735621096583649
0.10443028905743082
0.1108242242420527
0.1165108303459588
0.12141395390472912
0.12542690667710862
0.12843617750470077
0.13034701529355888
0.1311078389719941
0.13073114662916938
0.1293088616242707
0.12701947453582188
0.12412361102665792
0.12094511059768037
0.11783713094595488
0.11513670970209601
0.11311510988811374
0.1119335013955848
0.11161317102515356
0.11202664675286302
0.11291175748426986
0.11390587902050647
0.1145936122703607
0.11455895788740389
0.1134332740095633
0.11093262383904304
0.10688139473056928
0.10122196160280397
0.09401187889844648
0.08541065740402866
0.07565827029209206
0.06504792695748753
0.053896719584551084
0.0425189905071595
0.031207466462289137
0.020225327952268734
0.00980864687681382
0.00017467354143601858
-0.00847066785282
-0.015931971722171437
-0.022033142774517896
-0.02663511365351169
-0.029659003513036353
-0.03110958950445311
-0.031093281723719404
-0.029825045064467714
-0.02762025336442554
-0.02487043482648486
-0.02200562595339314
-0.019449365777475282
-0.017574151098414086
-0.016664985901900617
-0.016896684931800954
-0.01832748743697849
-0.020908196168612066
-0.024503262560827754
-0.0289183920208403
-0.03392849534667659
-0.03930039164744695
-0.04480679815231911
-0.050231487128273945
-0.05536880982337589
-0.0600224720331083
-0.06400767622371122
-0.06715818871283913
-0.06933720768675113
-0.07044950558329634
-0.07045242043596682
-0.06936399899368652
-0.06726692589873358
-0.06430662612516712
-0.06068189414293593
-0.05662748935485388
-0.05239039012442576
-0.04820385525018998
-0.044264819630711695
-0.04071966680353069
-0.03766114023679086
-0.03513585784464828
-0.033158771283188164
-0.0317291990770945
-0.030843503230392547
-0.03050177577750548
-0.03070873115703971
-0.031470865342940045
-0.032792219175660726
-0.03467024977286875
-0.037092226591586355
-0.04003170349002847
-0.04344406665176695
-0.047260087978980785
-0.05137716196720198
-0.0556495107387467
-0.05988045857829849
-0.06382081211958632
-0.06717659822514567
-0.06962693240188829
-0.07084962040407006
-0.0705497144750647
-0.06848573780065827
-0.06448972319217719
-0.058479679855714575
-0.050465319888472776
-0.0405489135661433
-0.0289228650995024
-0.015864534975548485
-0.0017276750764650807
0.013070878304033508
0.028070566472118606
0.042792973920763394
0.05677323921865465
0.06959460011926318
0.08092260850981507
0.09053509881997161
0.09834408339230691
0.10440621501212692
0.10891922759217808
0.11220288364136753
0.11466444059935817
0.11675043774933627
0.11888863530180684
0.1214261183334036
0.12457162650598895
0.12835149086772502
0.132588374524781
0.13690967816616154
0.14078782374598836
0.14360834819464777
0.14475547132164113
0.14370065107473104
0.14007907575389456
0.13374204108044352
0.12477827739565929
0.11350265887437157
0.10041522918092054
0.08613717434433152
0.0713337096066367
0.056636466123773495
0.04257852204759362
0.02955256096419319
0.01779706369541581
0.0074087760422662016
-0.0016257927906542196
-0.009389858076862632
-0.01599658506091295
-0.021557284708501854
-0.02616138009133092
-0.029868728792924248
-0.03271239188206129
-0.03470825312717823
-0.03586708303144644
-0.03620484198622455
-0.03574823157035771
-0.03453450078124972
-0.03260689059964644
-0.030009312952474936
-0.02678516146097353
-0.022984727278910384
-0.018683157518070013
-0.014006768333045995
-0.009161203868221552
-0.004452062825481527
-0.0002883343996442349
0.0028385387583788647
0.004402768995560851
0.0039174413925238535
0.0010266266599386908
-0.0043929628236232315
-0.012132603075847584
-0.021568257422315662
-0.03160793503037852
-0.04068299529318396
-0.04679281832563928
-0.04760631516447167
-0.040616884253248844
-0.02334090673773425
0.006455439676369037
0.050520086759371065
0.10989087834464265
0.18470434072575337
0.2740554631907294
0.3759207470882763
0.48714989889992577
0.6035261472799428
0.7198933257337956
0.8303498276571684
0.9285132188804216
1.007860712328718
1.0621455469945928
1.0858752429816423
1.0748164633545003
1.0264689723380684
0.9404366012068894
0.8186238859434404
0.6652063942644175
0.48635781060597394
0.2897591767033619
0.08395424411450847
-0.12236008261526507
-0.3210130410919245
-0.5049261854034791
-0.6685094635053486
-0.807862378354972
-0.9207865321515409
-1.0066403454580053
-1.0660816225775827
-1.1007485809463646
-1.1129267602744504
-1.1052407705905247
-1.0803989652815322
-1.0410077559839443
-0.9894613080821308
-0.9279022310566912
-0.858240330394524
-0.7822105224488668
-0.7014483362284506
-0.6175620468135335
-0.5321838908483025
-0.4469883353268367
-0.363672340508754
-0.28390021370068996
-0.20922290679751085
-0.14098701511572917
-0.08025088352236678
-0.02772340588369999
0.01626430988442748
0.05175179833481116
0.07911155238546679
0.09899111153801457
0.11224704482628374
0.11988106317938686
0.12298400830655234
0.12268821565039788
0.12012458771542592
0.11637886091320201
0.11244235969760612
0.10915573283659341
0.10714909156047006
0.10678735329620438
0.10813339688919114
0.11094170357105665
0.1146905468009913
0.11865261103024598
0.12199490932215375
0.12389201295079366
0.1236337785780426
0.12071031845872643
0.11486214805416561
0.10609089144840307
0.09463390801758871
0.08091284668923134
0.06546974312885853
0.048903946674041285
0.03181938654730627
0.014786257195516506
-0.00168374993161825
-0.017152635333545205
-0.03126659100520871
-0.04376577489753993
-0.05449504528678796
-0.06341435937919923
-0.0706048426639729
-0.07626525278090433
-0.08069442320211756
-0.08425818301401294
-0.08734333475771537
-0.09030527322353865
-0.09341854294377921
-0.09684022481636019
-0.10059419885037657
-0.10458031887346539
-0.10860721791913325
-0.11244216235500866
-0.11586744732014323
-0.11873116623618846
-0.12098106069096476
-0.12267339042191615
-0.12395388349569537
-0.12501401496429262
-0.12603185216386617
-0.12711088578267243
-0.12823124220937507
-0.1292250347692079
-0.1297821746202012
-0.12948626824603088
-0.12787391488750455
-0.124506138552399
-0.11903867762211172
-0.11127860012823733
-0.1012178146054393
-0.08903866373659203
-0.07509185744809302
-0.05985150628613546
-0.043855190996052076
-0.027638479773675305
-0.01167318769112652
0.0036825641843566815
0.018216270218297075
0.03187086043202081
0.044730740377255926
0.05698513739017209
0.06887300333460665
0.08061713428908582
0.09235840219745788
0.10410311284364929
0.11569597515701308
0.12682666674975068
0.13706988120218133
0.14594973198271705
0.15301314342778036
0.15789577936675417
0.1603680302216446
0.16035544969269866
0.15793498141362322
0.15331313988905051
0.14679417791647745
0.13874574175797677
0.12956779439121469
0.11966857020557446
0.10944920483596612
0.09929638699173568
0.08958017677618642
0.0806527006171082
0.07284333107400232
0.06644717377567283
0.061705668761503414
0.05878026602118273
0.05772213429754327
0.05844258337149584
0.060690198217097015
0.06404146435197959
0.06791166396974775
0.07159138804192157
0.07431022576572184
0.07532289935115906
0.07400588572607529
0.06994732671728106
0.06301231553894644
0.05337008638557922
0.0414777565743832
0.02802443200129358
0.013847011348302404
-0.0001669288831217127
-0.013173769606619706
-0.024453879904261077
-0.0334698560487165
-0.03990053448813071
-0.043651607829614886
-0.0448451926253142
-0.04379118166239261
-0.04094372912667491
-0.036847466267788447
-0.03207986080037073
-0.027197495018667396
-0.02269372590920749
-0.01897268054754491
-0.016340419619311892
-0.015009732097347926
-0.01511187292359592
-0.01670771232296121
-0.01979263664119828
-0.024293549968600964
-0.030060876718716257
-0.036861586207803373
-0.04437969885265755
-0.0522286453490103
-0.05997649510838261
-0.06718183258995442
-0.07343569552040138
-0.07840360640018748
-0.081861200211593
-0.08371725290829304
-0.08401922083573274
-0.08293891489334025
-0.08073951932849661
-0.07772907482553017
-0.07420863474964227
-0.07042465296851168
-0.06653449744454615
-0.06259159127848463
-0.05855312443675164
-0.05430921236706911
-0.049728472536416386
-0.04471186922645601
-0.03924480242953144
-0.03343699947331358
-0.027540918382865834
-0.0219423142553289
-0.01712146716873869
-0.013589753399524639
-0.011812298137351207
-0.01213147330460288
-0.014706449624178485
-0.019480422755174018
-0.026180497169951952
-0.03434765962277806
-0.043388221655615955
-0.05263527560650561
-0.06140944990327962
-0.06907152417565482
-0.07506346857514515
-0.07893758674598346
-0.0803749058674566
-0.07919398518640697
-0.07535076715942911
-0.06892988875150076
-0.06012842731252319
-0.04923414564370241
-0.03660132530278113
-0.022627675327006835
-0.00773525432310238
0.007643201646705178
0.023073335845567387
0.03812634420253729
0.05238769726110937
0.0654699545564311
0.0770303395693101
0.08679186427176604
0.09456549676504662
0.1002701901473163
0.1039474463400269
0.10576748712363694
0.10602493471298727
0.10512280191238146
0.1035442439625422
0.10181207972375905
0.10043716269312894
0.09985880280664818
0.10038344387587705
0.10213076393168047
0.10499803851619308
0.10865288930136588
0.11256083415500447
0.1160476279943921
0.11838859056141501
0.11891011478299612
0.1170845092421559
0.11259963043757291
0.10538963296834852
0.09562171969812756
0.08364411395898365
0.0699098917253206
0.05489687523314731
0.03904348693841134
0.022714366504030515
0.006200016218126014
-0.010254815287201362
-0.026406057562124906
-0.04196329901238494
-0.05655450472410571
-0.06971247852487665
-0.08088798380609376
-0.08948874959554191
-0.09493808981332746
-0.09674273021094541
-0.0945579424238215
-0.08823968249872292
-0.07787723501923256
-0.06380419271256776
-0.046589039976181065
-0.027008559267703795
-0.006007832767340761
0.015349746012344625
0.03593964435889837
0.054638022950533875
0.07038548299481512
0.08224962684009801
0.0894835003221583
0.09157797021393115
0.0883074061601681
0.0797687722704101
0.0664138037108397
0.04907248482041861
0.028964198030621887
0.007691322423625563
-0.01279085796433562
-0.03023392992266114
-0.04219007619206272
-0.04614040909762496
-0.03965349023284008
-0.02056417812725309
0.012841476897124024
0.06165191915383289
0.12618273741890568
0.20586984981026418
0.2992120423641376
0.40376615539102984
0.5161932807615797
0.6323510991732555
0.7474265792896738
0.8561048130372831
0.9527732332135334
1.031764269943235
1.087640992797641
1.1155265802370384
1.1114680321001482
1.0728085823762161
0.99852603102284
0.8894820474936219
0.7485266782008916
0.5804163100077281
0.3915309892439629
0.18941223106251934
-0.01782379291004004
-0.2221195790757437
-0.4160712064323925
-0.5934103433287136
-0.7493225411040207
-0.8805812487257383
-0.9855068283343301
-1.0637839534712636
-1.116186037682254
-1.1442607576486585
-1.1500269309301792
-1.1357219438992676
-1.1036235300648238
-1.0559531747177455
-0.9948534720568317
-0.9224202544308584
-0.8407634090168503
-0.7520686052922864
-0.6586356401088588
-0.5628768403629433
-0.4672691459750574
-0.37426395864519846
-0.28616767553507705
-0.2050116292599277
-0.13243204591103871
-0.06957842245996565
-0.01706310656545987
0.02504266222411241
0.05716847339540466
0.0801681246896661
0.09521750571032678
0.10369828789589312
0.10707774831257956
0.106793890164206
0.10415441075367514
0.10025779630448102
0.09594377129495761
0.09177727028762218
0.08806492173594893
0.08489726879856006
0.08220587285109986
0.07982350117350427
0.07753766971126194
0.07513165592932074
0.0724112263604579
0.0692185856948989
0.06543687015641475
0.06098887201752195
0.05583300703802519
0.04995842853177349
0.04338019341796792
0.03613475681374463
0.0282757581783363
0.01986989815118276
0.010992655067902367
0.0017237490755778113
-0.00785736897611259
-0.017675356233426927
-0.0276613828019557
-0.03775358209777415
-0.047895527377819914
-0.05803328371029851
-0.06811199872531169
-0.07807307795567581
-0.08785270082370833
-0.09738189288581468
-0.10658778136707968
-0.11539522895397905
-0.1237279308305566
-0.13150833756559158
-0.13865637574388048
-0.14508773768720773
-0.15071323082543497
-0.15544086568052193
-0.15918161030877861
-0.16185811748734308
-0.16341396027889532
-0.16382000310290792
-0.16307515804345707
-0.16120079594584677
-0.1582305484301704
-0.15419891556509696
-0.14913225139537736
-0.14304448437592457
-0.13593808613725583
-0.12780914057422876
-0.11865442510835872
-0.10847837829916397
-0.0972985663068386
-0.08514940473316494
-0.07208490903546572
-0.05818164150189254
-0.0435425919595673
-0.028301659356915858
-0.012627185476034001
0.003277753896119815
0.019180412603286165
0.0348297595095955
0.04997345456277347
0.06437804223954012
0.0778488971434337
0.09024611641366051
0.10149295500871322
0.11157454849185475
0.12052659954594316
0.1284161873203095
0.13531916818133163
0.14129977328974672
0.14639730434929052
0.15062248807903936
0.15396309861209362
0.15639607451659168
0.1579022124860448
0.15847962513455438
0.15815311626223097
0.15697797990046694
0.15503810361069686
0.15243939639736548
0.14930024060854957
0.14574074646173338
0.1418721959056866
0.1377875796104756
0.13355389859141617
0.12920697173554588
0.1247496203550455
0.12015397499196065
0.11536817570474081
0.11032710243300634
0.1049661796528943
0.09923679419166578
0.09312144440187009
0.08664646531137672
0.07989014712115503
0.07298437645871744
0.06610865492925126
0.059476484989253585
0.05331546416525364
0.0478435995785153
0.043244976857255576
0.03964790937258435
0.03710824229491382
0.03559978432260008
0.03501293406827751
0.03516148875211744
0.03579655457444951
0.03662568755246519
0.037335025243518956
0.037612187821895494
0.03716803593662415
0.035755920607595984
0.033187769312600895
0.029346950466380885
0.0241979270445685
0.01779210546937469
0.010268488119861946
0.0018475666880733072
-0.007182208197265958
-0.01648442459280159
-0.025698732485417444
-0.03446581521527363
-0.04245059566840766
-0.04936197335786335
-0.054968467742195146
-0.05910982753295664
-0.061704867212533376
-0.06275573141311883
-0.06234866868238743
-0.06065126110225312
-0.05790592783005082
-0.0544195101931227
-0.050548948299627625
-0.04668340807831501
-0.043223528427089285
-0.04055860925231568
-0.039042602586297444
-0.03896986566094851
-0.04055193316247072
-0.04389708601919036
-0.04899506613542844
-0.05570957440119668
-0.0637808592509538
-0.07283962741085119
-0.08243186028240268
-0.09205233855833406
-0.10118327247300751
-0.1093336933881098
-0.11607519397306199
-0.1210701652527221
-0.12408988792199016
-0.12502161292342379
-0.12386575057432841
-0.12072586398899608
-0.1157947489237032
-0.10933930776845534
-0.10168556284949043
-0.09320365795114248
-0.08429164198465788
-0.07535654858179214
-0.06679183657064867
-0.05895141193503959
-0.05212182985620638
-0.04649552793767973
-0.04214878650287792
-0.03902828105179008
-0.036949406035843624
-0.035608074427743615
-0.03460577910256189
-0.0334857872911359
-0.03177679232439224
-0.029039443096171937
-0.024911075030025848
-0.01914452440107594
-0.01163763324761307
-0.0024505450955346984
0.008191774881872779
0.01991377407388039
0.03222105718634782
0.04454837529191701
0.05631988074473396
0.06701474118384179
0.0762288852563426
0.08372285480095189
0.08944704196836654
0.09353892991594624
0.09629167387347659
0.09809848239583566
0.09938173549211103
0.10051867575814648
0.10177623722203864
0.10326599681196748
0.10492663120227919
0.10653627534300242
0.10775175018061092
0.10816690206535022
0.10737934114872542
0.10505424476113306
0.10097544520768224
0.09507706692396878
0.08745268722626633
0.07834262605854307
0.06810296632352733
0.0571619737785463
0.04597067729791561
0.03495454106220549
0.024472464170666848
0.014787879017026627
0.006054697642398206
-0.001681417263851875
-0.008468155810058223
-0.014421491108543762
-0.019694972581111077
-0.024448211789783708
-0.028818936548721898
-0.032902014165175526
-0.036737682364428266
-0.040310153681471735
-0.043556821153254315
-0.04638727350875094
-0.04870999646877563
-0.050463102341457566
-0.051644180746567694
-0.052333911433518975
-0.05270861593047181
-0.053038297349417785
-0.0536686417193215
-0.05498765297833924
-0.05737977099467159
-0.0611721322568361
-0.06657878421849475
-0.0736489982990324
-0.08222526999238976
-0.0919151673345003
-0.10207913602792866
-0.11183421213450141
-0.12007199632067485
-0.12548877459804228
-0.1266265178648483
-0.12192522783325979
-0.10978868036879602
-0.08866583824386735
-0.05714840163749119
-0.01408147318606851
0.04131972112835248
0.10935731688868175
0.1897540015991552
0.28158211046055776
0.3832252575429256
0.49237443700768047
0.6060563278632013
0.7206893618164733
0.8321639832820196
0.9359475266927089
1.027219948878682
1.1010514927347603
1.1526337684118497
1.1775691979069953
1.1722101410589287
1.1340210185736221
1.0619193083346894
0.9565401706507002
0.8203694199916312
0.6577027242491256
0.4744138561029583
0.277546688598119
0.07477719051270595
-0.12618475364717646
-0.3181740959568403
-0.4950563653731712
-0.6520663168161925
-0.7859728246852806
-0.8950718987677307
-0.9790335627149925
-1.0386441285973567
-1.0754923728516756
-1.0916473587025912
-1.0893690101343885
-1.070881896696493
-1.0382297354351921
-0.9932145256481231
-0.9374117024215243
-0.8722427136621399
-0.7990799726915947
-0.7193566368873172
-0.6346551687609924
-0.546753984752097
-0.4576201395531005
-0.3693466926376592
-0.28404424405656287
-0.2037049529278813
-0.1300623560270809
-0.0644705227807141
-0.007821654005358832
0.03948669650291063
0.07753316431734626
0.10681025354372639
0.12813190060526805
0.14252726246566805
0.15113590408732688
0.15511567591223416
0.15556955257916513
0.15349308570290804
0.14974087129228464
0.14500880910339026
0.13982871704370098
0.1345725690634585
0.12946461207412427
0.12460028755780542
0.11997091425992717
0.11549252622409044
0.11103640847578168
0.10645813463725248
0.10162169830976095
0.09641594351300947
0.09076194638354551
0.08461191242623942
0.07794193316355129
0.0707420433925652
0.06300713931461165
0.05473149258304603
0.045908185894344276
0.03653333231929782
0.026613805827817753
0.016176464952695636
0.005276405596506803
-0.005998338631337913
-0.017527810125552976
-0.029167870914185035
-0.040763965349910954
-0.05216843266550391
-0.06325775217040831
-0.07394593819996949
-0.08419111460424233
-0.09399380584338136
-0.10338726265359492
-0.11242175413942526
-0.12114584998714335
-0.12958811225856776
-0.13774235184935787
-0.14555885929052248
-0.1529429828962659
-0.15976121033295634
-0.165853611094077
-0.1710503238067708
-0.17518902062199476
-0.17813019696173296
-0.179767792911586
-0.18003391467299512
-0.17889795593686048
-0.17636176542709478
-0.17245324976781315
-0.16722072472499286
-0.16072951374453687
-0.15306108719649347
-0.14431387816773422
-0.13460413871372234
-0.12406500473061267
-0.11284241707792664
-0.1010876555956153
-0.08894763276808199
-0.07655515985457548
-0.0640216418238695
-0.05143400693431265
-0.0388564546279858
-0.026336281401586253
-0.01391204949925134
-0.0016219829872399887
0.010489269165122111
0.02236672111388297
0.033944466509542366
0.04514818778376474
0.05589988323952331
0.0661234918585599
0.07574999558517133
0.08472083429476214
0.0929889376117439
0.10051723931283257
0.10727518111072394
0.11323437251557673
0.11836502234343911
0.12263474384611199
0.12601078577035973
0.12846578360402902
0.12998602437670584
0.13058031068874468
0.13028709447426817
0.1291777733990325
0.1273548306872705
0.12494460880087045
0.1220856711337449
0.11891471254858298
0.1155526123749332
0.11209326789080963
0.1085972474789766
0.10509123884398537
0.1015730288476618
0.09802060101464369
0.09440310029494749
0.09069111493811678
0.08686411523841951
0.08291389499880905
0.07884411764487619
0.07466708448470219
0.07039931115698304
0.06605744496839726
0.06165567603342897
0.05720522421586674
0.05271577677783754
0.048198031298592715
0.04366603896296492
0.039138113782522806
0.03463567041639425
0.030180189425527207
0.025789261421837604
0.021473103461189528
0.01723292240666155
0.013062027783167908
0.008949872448701646
0.004888431948961772
0.0008796144892368508
-0.0030581768300564386
-0.006886427812765649
-0.01054759706620926
-0.013971659193202108
-0.017087391964966683
-0.019836199780001337
-0.022185317327988487
-0.0241371948671081
-0.025732719407421663
-0.027047363583232807
-0.028180988452176942
-0.0292435012706865
-0.030339510106049714
-0.03155520416627799
-0.03294988829340706
-0.034553248844826245
-0.0363680157330744
-0.03837655462926949
-0.040549211374185636
-0.04285202375629255
-0.04525179932445937
-0.04771749925466788
-0.050218145081392294
-0.05271870732159226
-0.05517621835372918
-0.05753834040814972
-0.05974575384775465
-0.061738343594844515
-0.06346385084589339
-0.06488692338829717
-0.06599644062259295
-0.0668093811036639
-0.06737012565097279
-0.0677449055577319
-0.06801206959650796
-0.06824975368842907
-0.06852314598214582
-0.06887369749134974
-0.06931226842221562
-0.06981735510178178
-0.07033841280440428
-0.07080317791213651
-0.07112705436723388
-0.0712222247267344
-0.07100427481856426
-0.0703948473687464
-0.06932011725103493
-0.06770637565857719
-0.06547511408359187
-0.06254020812368871
-0.058809097415105295
-0.05418867241485875
-0.04859542569373093
-0.041968558515502984
-0.0342841181972215
-0.025567840057220972
-0.015904323085062098
-0.005440634977569626
0.005616640566644895
0.0170107893951802
0.028449658112714715
0.03962389882888206
0.050226942465542226
0.05997532058214553
0.06862858322187376
0.07600835672105086
0.08201570864488199
0.08664506119787871
0.08999195435111686
0.09225160021687231
0.09370571112298877
0.0946964673022575
0.09558842082258656
0.09672132825778015
0.09835917635107899
0.10064267943082104
0.10355361812822356
0.10689883229320782
0.1103191823889121
0.11332468322270803
0.11535213393864731
0.11583705091732728
0.11428867515700246
0.11035603847270097
0.10387472550786922
0.09488767548841359
0.08363828170383517
0.070538999293572
0.05612246348388544
0.040984000984986
0.025724367430633912
0.010900067224105098
-0.0030136597002696254
-0.01564463992499773
-0.026730269722090347
-0.03611078462943659
-0.043713012354353785
-0.049529256240527994
-0.05359597672116218
-0.05597602770070958
-0.05674667931654683
-0.05599409201756551
-0.053813732875236296
-0.050315489801863275
-0.045631801839480485
-0.039926943111349485
-0.033405720585924045
-0.02632017915557699
-0.018973151095668758
-0.011717392077690446
-0.004948702968641891
0.0009087907066392036
0.00542681427696618
0.008207424448683383
0.008927407963925802
0.00739062337649731
0.0035845047881768064
-0.0022648730876306247
-0.00964628270332185
-0.017733328970655333
-0.025378714659321677
-0.031139250503420892
-0.03333554559012146
-0.03014661054988581
-0.01973500449480425
-0.00039331795974392904
0.029301324822205817
0.07034042757709408
0.1231604467190987
0.18755465505666216
0.26262716328636254
0.3467885555955484
0.43778607397723474
0.5327576963689481
0.6283004665007438
0.7205492551085326
0.8052710365484047
0.8779883405381689
0.9341497607352125
0.9693621158450164
0.9796870471400355
0.9619862790040887
0.9142789376813061
0.8360574334508123
0.7285017114693784
0.5945393148595738
0.43872088896722666
0.2669130356608929
0.08584463814798397
-0.09743031334687018
-0.27607766936528233
-0.4439637975071682
-0.5960171857467301
-0.7284410192735548
-0.8387727298780947
-0.9258085177112019
-0.9894260714209725
-1.0303464204521713
-1.0498767213588907
-1.0496711364566877
-1.0315382702574603
-0.9973123542824417
-0.948793034558691
-0.8877467723440231
-0.8159530079171291
-0.7352717003585933
-0.6477066555025287
-0.5554415559127392
-0.4608323671848169
-0.36634964379835927
-0.27447535146722507
-0.1875687886320442
-0.10772273633490763
-0.03663269426659742
0.02450110611607437
0.07502610849246598
0.11484005441296687
0.1443477108357158
0.16438142763661878
0.17609805658085326
0.18086485224778212
0.18014532509561348
0.17539365946920973
0.16796396501690875
0.15903863002055332
0.1495784066975943
0.14029542663160727
0.131648944852359
0.12386216836845972
0.11695706906846497
0.11080266307108531
0.10517094500647932
0.09979373866445013
0.09441355080461196
0.08882240518155403
0.0828846121520128
0.07654216674650369
0.06980437705450948
0.0627257768106422
0.055377910336582334
0.047820956204592584
0.04008036663459944
0.032132003522647716
0.023897125133752462
0.015246541518574633
0.006011768775381865
-0.0039996081034942964
-0.014986860927096446
-0.027138937276296342
-0.040617820142091
-0.055542476791554156
-0.07197330119899556
-0.08989714934849158
-0.10921349240419893
-0.12972277984694225
-0.15111865187389703
-0.17298596343832226
-0.19480653188221095
-0.2159740370141559
-0.23581860621756884
-0.2536404023359931
-0.2687501719613638
-0.28051344454808674
-0.2883941537214493
-0.2919930905427094
-0.29107693253018274
-0.28559468154151746
-0.27568007464086497
-0.2616405080888162
-0.24393467673442626
-0.22314207582483994
-0.1999276858166808
-0.1750048050606248
-0.14909845504767613
-0.12291129822433876
-0.09709361677871339
-0.07221851765703996
-0.04876311050007218
-0.027096013257239662
-0.007471252714696959
0.009971556212172017
0.02520101110987132
0.038282149255796386
0.04935985385484038
0.05863860789527065
0.06636020409832519
0.07278138595111641
0.07815359000402389
0.08270687897338949
0.08663969771503595
0.09011515654470505
0.09326320185708661
0.09618666189189848
0.09896833742188532
0.10167639428820978
0.10436622098364662
0.10707827357075199
0.10983282942811186
0.11262366028298558
0.11541315505629263
0.1181312387485791
0.12067956647643306
0.12294111876849258
0.12479385260287783
0.12612592764598876
0.12684957236136485
0.12691092949658106
0.1262940260065953
0.1250181282904901
0.12312904645909743
0.1206863014007815
0.11774915361250328
0.11436488915740631
0.11056221463554396
0.10635126211628597
0.10172996525209496
0.09669489746097899
0.09125345022819106
0.08543381136830785
0.07928978927941961
0.07289899829924723
0.06635477102084912
0.05975379642443299
0.05318251709807913
0.046705614332800696
0.04035943281701422
0.034152007898762334
0.02806970329888524
0.02208878923296263
0.01618908946769014
0.010366436576519566
0.004641140654065778
-0.0009392071252088777
-0.00630285314936463
-0.011361862519112727
-0.01602303824479005
-0.020199565092401495
-0.023821389787495564
-0.026842986892075725
-0.029248021409493015
-0.031051161988525436
-0.032297629202819624
-0.033060971678835635
-0.033439277668931296
-0.03354981786995876
-0.03352212043959903
-0.03348964954330085
-0.03358043018311317
-0.033907067927912676
-0.034556767528920306
-0.03558227150827435
-0.03699501485548024
-0.03876196607009882
-0.040807429982032566
-0.04302053146242558
-0.04526824117535542
-0.047412705838566535
-0.04933048468831345
-0.05093043768104984
-0.05216685170449623
-0.05304508357737589
-0.053618397632881454
-0.05397647556904625
-0.05422789422238137
-0.054480240669511903
-0.0548220107369987
-0.0553097878857668
-0.05596261625984107
-0.05676353894507935
-0.05766660813189524
-0.058606688980837665
-0.059509197300912205
-0.06029745550370438
-0.060896387857767735
-0.061232475671722776
-0.061230931345306425
-0.06081171520279501
-0.05988626059260728
-0.05835661182119798
-0.056118107260164314
-0.053065809395934686
-0.04910383484205488
-0.0441559092818247
-0.03817512468759931
-0.031151118051275545
-0.023113661838450445
-0.014132698873710273
-0.0043157703104981975
0.006195775139751184
0.017230562712288632
0.028590376351671967
0.04005303081700224
0.051376056707839145
0.06230290324461564
0.07257344646879488
0.08193996879001228
0.0901884038276462
0.09716272913895715
0.10278839604988145
0.10708925708292859
0.11019225738455937
0.11231559951050747
0.11373907644378593
0.11475918175806359
0.11563549007107363
0.11653765205388346
0.11750340618061234
0.11841690877205525
0.11901347159059313
0.11891192556945507
0.11767021093436988
0.11485475777587861
0.11011114428071307
0.10322326047867751
0.09415078869860516
0.08303950839598832
0.07020452656251393
0.056091665396953115
0.04122577087461495
0.026155989461379318
0.011407027029821385
-0.002557444980798228
-0.01535679005480725
-0.02670185768933774
-0.03639332520914659
-0.04431429608952622
-0.05042107631871843
-0.05473465924097891
-0.05733370584667716
-0.0583483168773197
-0.05795308979273603
-0.056357975696897676
-0.05379613066719575
-0.05050894982977692
-0.04672949287511142
-0.04266643856199911
-0.03849143084536202
-0.034332885389163806
-0.030278627694302705
-0.026388051063366818
-0.022712176921134104
-0.01931768651815663
-0.016309292549682098
-0.013844178392384018
-0.012132791905351844
-0.011421902515337111
-0.011958290088016552
-0.013934505482428772
-0.017421478894308555
-0.022295822693389387
-0.028171892840808715
-0.03434955943645414
-0.03978796024936498
-0.0431133650071826
-0.04266596304720583
-0.03658619128046814
-0.022936487095676517
0.00015025161859549387
0.034307788126002804
0.08077340413570078
0.1402386071560392
0.2127259747604244
0.2975010808830478
0.39302413252620866
0.496941605840491
0.6061150343785043
0.7166832607228865
0.8241564688651042
0.9235448408063073
1.0095301148795988
1.0766916667641517
1.119796505598426
1.1341526170272334
1.1160081024788784
1.0629584210015282
0.9743067248937263
0.8513141228817156
0.6972823597792102
0.5174320668981616
0.3185721828482445
0.10859311785243163
-0.10415159028589846
-0.3114913960347659
-0.5060276227178541
-0.6815956015886994
-0.8335573863517273
-0.958912824798064
-1.0562440369898618
-1.1255280881118475
-1.1678633838737484
-1.1851577314591144
-1.179821837806045
-1.154503222231367
-1.1118839301264283
-1.0545527032810995
-0.9849498921096844
-0.9053727065627569
-0.818020519322044
-0.7250557756817899
-0.6286562157944122
-0.5310385881141255
-0.4344420686560628
-0.3410696419521813
-0.2529956121174786
-0.1720550133868199
-0.09973444593915341
-0.03708334217502905
0.01533954969549447
0.05747637224913098
0.08973655115399072
0.11292568311186905
0.1281479573823819
0.1366952291688632
0.1399355432252435
0.13921192724260414
0.1357594077105714
0.1306449680033126
0.12473191904050818
0.11866726508917698
0.11288850467878353
0.10764508723362849
0.10302935563346481
0.09901202963473803
0.09547793002080254
0.0922585783807145
0.08915948462573886
0.08598127753957988
0.0825350532765111
0.07865302269959647
0.07419561961128215
0.06905595406554328
0.06316218542367151
0.056478160559343286
0.04900245508911227
0.04076574747699954
0.031826359046321535
0.02226396637053049
0.012171976871967654
0.00164966998321366
-0.00920438470612247
-0.020296170080044248
-0.031536422782465545
-0.04283724601621454
-0.05410630934649118
-0.06524078259823449
-0.07612360272695778
-0.08662430849207026
-0.09660547501368125
-0.10593410088872351
-0.11449571029372899
-0.12220788704190204
-0.1290297194586147
-0.13496433638047708
-0.14005325457878842
-0.14436320040453168
-0.14796783079808432
-0.15092791907792014
-0.1532738876717425
-0.15499406052396034
-0.15603083620846955
-0.15628545659335283
-0.15563050068573456
-0.15392787724136447
-0.15104904331817273
-0.14689366938381448
-0.1414033333082507
-0.13456814854437774
-0.12642610733875168
-0.11705663121053962
-0.10657082693234476
-0.09510113617368822
-0.0827926198157462
-0.06979725692165632
-0.056271554476002766
-0.0423766831344415
-0.028279563188446998
-0.014153081484162543
-0.00017402140683779997
0.013481802760794548
0.02664662305721272
0.03916852559516656
0.05091813607663545
0.06179267022781542
0.07171676795313915
0.08064057804376312
0.08853619888270597
0.0953936369302686
0.10121713211533634
0.10602232744639578
0.10983450574863989
0.11268797532467953
0.11462654351811116
0.11570477812998681
0.11598943937164373
0.1155601989745899
0.11450872275299658
0.1129354820210015
0.11094422435483559
0.10863470905182625
0.10609492224194726
0.10339437215427938
0.1005800580454955
0.09767619437454947
0.09468785815829879
0.09160774831816043
0.0884245309038845
0.08513091446637645
0.08172964696280821
0.07823605678421729
0.07467654213485746
0.07108333551028549
0.0674866541969148
0.06390590314250182
0.0603419753167345
0.05677279205388794
0.05315377462189797
0.049423840331452314
0.04551604650976946
0.04137067815843753
0.036947861205047755
0.03223691585646837
0.027260589248622017
0.022073708644072407
0.016757186236672977
0.011409205274690663
0.006135607081389382
0.0010411214497118035
-0.0037775682149140044
-0.008236661786901781
-0.0122683856390972
-0.015823242261857492
-0.018872106320170997
-0.021408425131737647
-0.0234501038790169
-0.025040069087397282
-0.026244316927418545
-0.027146676029404338
-0.02784042937775071
-0.028417942713619297
-0.028960157369368036
-0.029528023529800267
-0.030157621361970293
-0.03085991027336677
-0.03162494597431827
-0.03242930329676039
-0.033244687785858616
-0.03404555430266755
-0.03481397630737976
-0.03554082866297826
-0.036223319755713634
-0.03685984705084695
-0.03744388884837387
-0.03795898433956929
-0.03837663272799114
-0.03865818356465383
-0.03876072093102014
-0.03864586705677849
-0.03828959692759839
-0.037690731128066535
-0.03687587429789018
-0.03589922760690896
-0.03483680917979962
-0.033775891240174195
-0.032801557709526946
-0.031982910262946924
-0.03136148304138561
-0.03094390564288714
-0.03069990366115923
-0.03056555402803629
-0.030450616373745965
-0.03024800500354696
-0.029843176500041448
-0.029121443527711944
-0.027972020827234767
-0.02628882513500994
-0.02396926914942801
-0.02091304478406839
-0.01702297548150562
-0.012209462478025072
-0.00639896056697001
0.0004544711228253209
0.008356729571707761
0.017263106296434027
0.027072095511506817
0.0376251194644047
0.048712503229026
0.060084885431285914
0.0714683372951127
0.08258088266053043
0.0931480325691853
0.10291550236112151
0.11165837836702852
0.11918729061403775
0.12535313112843538
0.13005210046963692
0.13323220567992325
0.13490097756439542
0.13513258687137206
0.13407124551712216
0.13192729118624602
0.1289630638754904
0.12546762343123552
0.12172207859951414
0.11796004825264705
0.11432978177893786
0.11086516918903969
0.10747206674646227
0.10393416171370302
0.09993932821163116
0.09512364860558291
0.0891267693887922
0.08164979891608111
0.07250608809420528
0.06165623850122788
0.049221476495852304
0.03547356229232783
0.020803732866066533
0.005676821203588777
-0.009421095885080706
-0.02403275996670923
-0.03777003015337343
-0.05033941215038907
-0.061550788122415975
-0.07131026270599972
-0.07960055336773349
-0.08645408552882342
-0.0919246168859344
-0.09606273698349299
-0.09889920840516064
-0.10043826957228745
-0.10066109017092277
-0.09953782850917034
-0.09704547493281916
-0.09318817343620506
-0.08801704486869853
-0.08164735708646871
-0.07427169573329954
-0.06616820624209505
-0.05770285420360114
-0.04932408505095747
-0.04154762748776973
-0.034928972915646
-0.030021595015719254
-0.02732029594607425
-0.027191100141087502
-0.029791747189607528
-0.03498978629404798
-0.0422880219523034
-0.05076898284652953
-0.05907065760317997
-0.06540455394857637
-0.06762393244111249
-0.06334488613294344
-0.05011626001995905
-0.025627179228778947
0.012065501151551508
0.06431186347963162
0.1316690191186738
0.21374766411095433
0.309120577965195
0.4153008445136106
0.5287896697419924
0.6451876576712525
0.7593608198692865
0.865653826531924
0.958146844062003
1.0309559381911062
1.07857693250756
1.0962661611436582
1.0804385315190657
1.0290466701669725
0.9418902858218067
0.8207988020247597
0.6696377693225861
0.4941116943600841
0.30136890883112694
0.0994499514876498
-0.10334993656734559
-0.2991189548875958
-0.4808853447166724
-0.6430290381082143
-0.7815135002754887
-0.8939338889279043
-0.979404559768369
-1.0383275875852034
-1.0720928658469266
-1.082760210918512
-1.0727666766775714
-1.044690347641723
-1.0010876084598022
-0.9444065249246429
-0.8769664498663408
-0.8009847154601936
-0.7186261460635276
-0.6320505100368794
-0.5434368875119074
-0.45497161124251545
-0.3687964735592482
-0.28692412599290823
-0.21113569932981197
-0.14287985643518525
-0.08319206174294005
-0.03264829925067935
0.008639775591729734
0.04098922047016038
0.06507736721378787
0.08185221312472342
0.09243427222724623
0.09802097573013951
0.09980171877976537
0.09888831856198395
0.0962627472386422
0.09274191409931178
0.08895811256792746
0.085353405030887
0.08218636872170836
0.07954984141193483
0.07739817639519543
0.0755818381704182
0.07388615483064884
0.07207022445126617
0.06990180082979518
0.06718458953940584
0.06377566965563368
0.05959246968140591
0.05461045878411344
0.04885402181866192
0.04238360415233462
0.03528213344403971
0.02764312319915337
0.01956197809062156
0.011131058159609637
0.002438126184966976
-0.0064330225601728986
-0.015401482884990624
-0.024389418902161893
-0.03332450550585613
-0.04214454754980881
-0.05080320335936907
-0.05927519180943496
-0.0675592942262625
-0.07567775325446068
-0.08367124381233554
-0.09158946692632201
-0.09947854907444034
-0.1073675021187489
-0.11525652487749093
-0.12310962578675994
-0.13085304221685906
-0.13837958678250975
-0.14555772592036556
-0.15224317907873067
-0.158290341754296
-0.16356102684604298
-0.16792888468840378
-0.17127918677621418
-0.17350504948759995
-0.1745022316512365
-0.17416511055182657
-0.17238622630149653
-0.16906089203366964
-0.16409696203899818
-0.15742832115833086
-0.14902951907675177
-0.138928596313914
-0.1272155559851432
-0.11404483853272061
-0.09963120919469325
-0.08423944657159035
-0.06816902506807843
-0.051735591741303454
-0.03525143949940163
-0.01900728705814704
-0.0032573822682161017
0.011790719853621496
0.025981224680008973
0.03921042878600312
0.0514234476204272
0.06260877005271734
0.07279185516323942
0.08202842976646478
0.09039754185040262
0.09799403151169532
0.1049200682443188
0.11127581916368
0.11714998747660706
0.12261151617717
0.12770385067612908
0.13244276961721463
0.136818154515694
0.140799386890446
0.14434341824888855
0.14740401219814206
0.14994036533087185
0.15192348653509738
0.15333939851140063
0.1541891651326807
0.15448656140576328
0.1542546480852235
0.1535225508355136
0.15232343383288566
0.15069410400981495
0.14867603651464376
0.14631702943127076
0.14367230051103086
0.14080376690346055
0.13777663470542845
0.134653257285992
0.13148523958532943
0.12830555740524308
0.1251227106438002
0.12191859177725824
0.11865097555505419
0.11526049975148774
0.11168089417385751
0.10785028519113617
0.10372095442752484
0.09926516775179624
0.0944756149840998
0.08936039230767315
0.08393395064234645
0.07820662388630904
0.07217591719009563
0.0658224823333727
0.05911260380266521
0.05200729944465619
0.04447632948865335
0.03651408648052461
0.02815381486318993
0.01947684941790153
0.01061439054493736
0.0017406163468434782
-0.006942462588534689
-0.01522632627529026
-0.022920003497218035
-0.02987271741729657
-0.03599110918339245
-0.041247996813258005
-0.04568123642109519
-0.04938318129394666
-0.05248306263344925
-0.055125925923446686
-0.05745224273731696
-0.05958185353131599
-0.0616045811701116
-0.06357805449252266
-0.0655315720294356
-0.06747374895845605
-0.06940143469257949
-0.07130780674012212
-0.07318829138300686
-0.07504371793197868
-0.0768807451269283
-0.07871013632429276
-0.08054392727999282
-0.08239279675204683
-0.08426480023144169
-0.08616597901488955
-0.08810241080269722
-0.09008242918155465
-0.09211738028473171
-0.09421955756082712
-0.09639675958848277
-0.09864397179573307
-0.10093365086519672
-0.10320673906364489
-0.10536671014230808
-0.10727857094792348
-0.1087738421426472
-0.10966133676527048
-0.10974239075065913
-0.10882834695838992
-0.10675766949887619
-0.10341011274195899
-0.09871591275370635
-0.0926589479296753
-0.08527406043646041
-0.07664000892423772
-0.06687053749459974
-0.0561064164493985
-0.044510745423984546
-0.032268382696575816
-0.019588562254770625
-0.006708227520655733
0.00610713885742569
0.01856816443648563
0.030373589314013624
0.04122987977003079
0.05087691206000235
0.059116511296010116
0.06583944238550149
0.07104600876236017
0.0748557352573093
0.07750262950543413
0.07931428539505125
0.08067561147346812
0.08198085432487612
0.08358009488825273
0.08572780138765256
0.08854100999070447
0.09197344926581738
0.09580982358770761
0.09968181545709476
0.10310438796671449
0.10552809830863878
0.10640095020816354
0.10523219064963972
0.10165040160619145
0.09544908992549807
0.08661463291773235
0.07533376510275037
0.06198042841414462
0.04708422530520384
0.031284528129019426
0.015275410537362156
-0.0002529261256135845
-0.014670494420616789
-0.027456191901027098
-0.0382340954596961
-0.0467938972576283
-0.0530936252394277
-0.05724471584070891
-0.05948168481859597
-0.06012083331397172
-0.059514086310151586
-0.05800464327369834
-0.05589042425207442
-0.053399527421730764
-0.05067956989739207
-0.04780049157946865
-0.044768686074933076
-0.041549313245154894
-0.03809311903886943
-0.034363867358510373
-0.030362665832197183
-0.026146145515363643
-0.021836493657921716
-0.01762243973059004
-0.013751184844123776
-0.010511746999662158
-0.008210222742650996
-0.007137252204883389
-0.007527886582833858
-0.00951441372385331
-0.013073730556762869
-0.017972650367899794
-0.02371683254866763
-0.029511160412800254
-0.03424060983578201
-0.03648040340283718
-0.03454227858032438
-0.02656002378445481
-0.010612378568282822
0.015124292220147197
0.05220631086457397
0.1017522017446185
0.16428853469252733
0.23962729103392288
0.32678541549426154
0.42395101009592806
0.5284944173043631
0.6370182547947425
0.7454399489955875
0.8491039648147501
0.942927466625016
1.0215895120230258
1.0797761950067533
1.1124892491296117
1.1154125104509143
1.0853114710943852
1.0204210677806902
0.9207625401099062
0.7883276942323381
0.627081450336803
0.44276011398856063
0.24247782119775715
0.03418827956163003
-0.17392586719649727
-0.3740542108650743
-0.5592758974534674
-0.7239394927045442
-0.8638793049916919
-0.9764693539071911
-1.060538059092689
-1.1161807537265098
-1.1445131248692175
-1.1474076949068504
-1.127248948391737
-1.0867323126960127
-1.0287196951721111
-0.9561515375519161
-0.872004269466927
-0.7792743769694571
-0.6809673494946613
-0.5800720266962212
-0.47950772876092884
-0.382041272526776
-0.29018103652240096
-0.2060630646125423
-0.1313479360620117
-0.06714618563540517
-0.013985122164088946
0.028177486210223618
0.059895341346405125
0.0821403587270032
0.09618755737633743
0.10349241377749566
0.10557321333729609
0.10390746801862055
0.09984761358427101
0.09455796245896689
0.08897279028071711
0.08377450372786138
0.07939065058917917
0.07600841430700093
0.07360467526048217
0.07198872005515917
0.07085363300868469
0.06983163041358768
0.06854811867277293
0.06666908320131593
0.0639368363373219
0.06019054313303424
0.05537031882567504
0.04950652614692596
0.04269835306578287
0.035087097517710164
0.026829590715574315
0.018076147865254515
0.008955818151243217
-0.0004301383214394706
-0.01000739281831941
-0.01972246663973958
-0.029534114466005186
-0.039404640107292624
-0.049292979057110754
-0.05915066157205949
-0.06892104484157824
-0.07854143182105335
-0.08794694367466019
-0.09707449037038451
-0.10586512304986567
-0.11426356691667905
-0.12221469979737186
-0.12965783074473514
-0.13652049482100592
-0.14271386317531856
-0.14813164717582217
-0.152653596129593
-0.1561535645290948
-0.15851094369587393
-0.15962328766517458
-0.159417459458232
-0.1578567731376324
-0.15494245146834462
-0.15070906066424838
-0.14521504125637227
-0.13853064977405194
-0.13072629894479174
-0.12186425818529716
-0.11199587304815564
-0.10116506099746753
-0.08941730500947735
-0.07681213764884792
-0.06343634130895802
-0.049414806021991095
-0.03491629662958733
-0.02015235914772771
-0.005369053531004333
0.009167264822268463
0.02318770415057112
0.03643919050293784
0.04870069685738452
0.05979550105137263
0.06959883349997636
0.07804135418776155
0.0851094495101374
0.0908432647486499
0.09533288631612129
0.09871247835100386
0.10115178733157765
0.10284451178346538
0.10399363518115318
0.10479470219774879
0.10541879437838833
0.10599733477466293
0.10661078807983514
0.107282969287274
0.10798208874797664
0.10862876873072363
0.10911012524666724
0.10929792907572106
0.10906815823520487
0.10831904806677452
0.10698501153675019
0.10504447390872018
0.10252063480239834
0.09947530240772857
0.0959971188207965
0.09218657012098423
0.08814089143493023
0.08394198915223018
0.07964962185132993
0.07530053363831228
0.07091260346693024
0.06649194697690639
0.06204053434975481
0.05756215720221116
0.05306526300733418
0.048562140240494385
0.044065061883280486
0.03958101648793732
0.03510723224285823
0.030629611869297687
0.02612542551559927
0.02157031388705248
0.016948191961226954
0.012261513959238728
0.007538978571604814
0.002838246193684039
-0.001757578495479344
-0.0061494474234009226
-0.010236187496180224
-0.013929960262936825
-0.017170283303974986
-0.019933805499158526
-0.02223791352658484
-0.024137566698251713
-0.0257162130046345
-0.027072831406245182
-0.028307714356855213
-0.02950944519151356
-0.030744833815286948
-0.03205268329080183
-0.03344147283193396
-0.03489055367793258
-0.03635428310716023
-0.03776850622454886
-0.039058748073831376
-0.040149382933457115
-0.04097300494225449
-0.041479252560212766
-0.04164237237433181
-0.04146682127591808
-0.04099023130594995
-0.0402831538059149
-0.03944519642013649
-0.03859743139727734
-0.037871256002823754
-0.037394311078834654
-0.03727470369773477
-0.03758553683502775
-0.038352319356233455
-0.03954587445211042
-0.0410827018037296
-0.04283343329834155
-0.044638338789566384
-0.04632724901906492
-0.04774025659374738
-0.048745437606191246
-0.04925059444969683
-0.04920735328736426
-0.04860744193882833
-0.047472319323834
-0.04583841671908704
-0.04374102535094228
-0.04120013873247365
-0.03821113341832955
-0.03474211335679841
-0.030738364805894168
-0.026132981728126108
-0.020861548157190976
-0.014878005744120825
-0.008168665894920006
-0.0007618372519451475
0.007268330001293949
0.015803738304611997
0.024688689239848106
0.03373880893343503
0.04275087846523527
0.0515126856777409
0.05981300848275274
0.0674525782777742
0.07425695994203539
0.08009156288356983
0.08487761982913959
0.08860635294637013
0.09134730128421399
0.09324658182734491
0.09451212829573696
0.095385572594874
0.09610369799312311
0.09685533434147953
0.09774138344574293
0.09874592975635268
0.09972499722296956
0.10041661455029799
0.10047194614941889
0.09950315608097504
0.0971403191471246
0.09308783432308515
0.08717085069969029
0.07936417929490198
0.06979960246094964
0.05875162835941006
0.046605598295344046
0.033814737837601264
0.020853746564635907
0.008175885297076465
-0.0038213084019387182
-0.014818912152000544
-0.024587587629517547
-0.03298777069361109
-0.039961308908225475
-0.04551739551582839
-0.049715807790088516
-0.0526500752822071
-0.0544323979355569
-0.05518122427073052
-0.055011682575783614
-0.0540286914270473
-0.052322605070380966
-0.04996760942763362
-0.04702356942551593
-0.04354230868129164
-0.03957904209056851
-0.03520873071949019
-0.030545644976347777
-0.02576279402061467
-0.021106566573090756
-0.01690137326148381
-0.013539591862523322
-0.011453712793985608
-0.01107000881642784
-0.012745943152547954
-0.016696462513512818
-0.022916837091574445
-0.031111449364512864
-0.04063870755530416
-0.05048190714907002
-0.05925419613333415
-0.06524282342518282
-0.06649394484195251
-0.060934998117828015
-0.04652750958721785
-0.021439494297998664
0.015776307522533246
0.06601383526423356
0.12947027446370038
0.20554128235938862
0.29276429648432944
0.38881394033627487
0.49054819601747796
0.5941003868279622
0.6950112992946473
0.7883980845942934
0.8691605951835565
0.9322288770113011
0.9728544529364623
0.9869405578639993
0.9713928454316183
0.9244555928825059
0.8459848028551268
0.7376051092398133
0.6027064073596717
0.44625893573750514
0.2744574551790276
0.0942376877044193
-0.08726802274959038
-0.26326030811427614
-0.4277201700363277
-0.5757275908950774
-0.7036316059302214
-0.8090777143914027
-0.8909178764469241
-0.9490393403246872
-0.9841515757534379
-0.9975674155748776
-0.9910071587383729
-0.9664445952394531
-0.9260031032329019
-0.871899496563145
-0.8064245346080254
-0.7319431868954638
-0.6508957521578526
-0.5657830388945606
-0.47912452167379616
-0.3933864181225869
-0.3108851632656738
-0.23367886346733668
-0.16346342420937865
-0.10149027096132487
-0.048518933349155656
-0.004811291445043393
0.02983318444818267
0.05600839300403253
0.07461009322693968
0.08673443247210523
0.09357762560422526
0.09634511855832022
0.0961756646394159
0.09408341012437266
0.0909192879546519
0.0873513710205296
0.08386216532987258
0.08075939345171645
0.07819608820475347
0.07619599624962012
0.07468112794887038
0.07349926768228539
0.07245001412856625
0.07130843652876201
0.0698458479651295
0.06784754156123997
0.06512754069040078
0.061540452690111144
0.05699042506438422
0.05143702992666201
0.04489769054250741
0.03744607114684964
0.029205766516985237
0.020338793234463966
0.011028986285385177
0.0014615427483110261
-0.008198599231120516
-0.017825724161445528
-0.027345683598851336
-0.03673879310083173
-0.046032544675582945
-0.05528570506108857
-0.06456714653028836
-0.07393360206010512
-0.0834104253283327
-0.09297855266047768
-0.10256949329286905
-0.11206862444448132
-0.12132559612190842
-0.13016948743801593
-0.13842573232083588
-0.14593185465452715
-0.15254959823850586
-0.15817186960024782
-0.16272385945711304
-0.16615868977128861
-0.16844888929890134
-0.16957583383242963
-0.1695198093710555
-0.168253314753725
-0.16573947890995336
-0.16193617872322738
-0.15680498077724553
-0.15032277895607277
-0.14249326114021157
-0.1333553413490655
-0.12298651817319607
-0.11150055590490186
-0.0990404486018532
-0.08576880056638811
-0.07185823457077375
-0.05748416913481408
-0.04282137454161187
-0.028044331258520648
-0.013329990016431693
0.0011393830317046386
0.015175646939678683
0.028588148881145005
0.041191473312402936
0.052816773971094015
0.06332479410917449
0.07261801744749412
0.0806493444480678
0.08742529601314665
0.09300286907541429
0.09748049221544211
0.10098469204195876
0.10365486450288783
0.10562888901548251
0.1070321482585055
0.10797169074951293
0.10853584048009514
0.1087979288068756
0.1088216350070304
0.10866514285888554
0.10838200771845333
0.10801800973452994
0.10760489502112039
0.10715322389294453
0.1066470620747694
0.10604279034621708
0.10527310694254646
0.1042558466896121
0.10290599699878583
0.10114849750796903
0.09892915708645196
0.09622135473048424
0.09302708945786906
0.0893722586572558
0.08529750866990156
0.08084726549036475
0.07606020614988993
0.07096414286332761
0.0655770622870554
0.059914295518592356
0.054000069892356575
0.04788047861051719
0.0416344282282252
0.03537938622614555
0.02926962232418386
0.02348597928492902
0.018217858971910725
0.013639784135483033
0.009886214895205185
0.007028927151264807
0.005061037401276537
0.0038907542105006488
0.0033464090314390123
0.003192560277579547
0.0031551788870056094
0.0029522708759576084
0.0023250235802727785
0.001064104412100376
-0.000973422343839172
-0.00385880698552284
-0.007596984850380449
-0.012138621776873347
-0.01739329134301243
-0.023238940418466636
-0.029525593947869758
-0.03607485953993942
-0.04267944527912715
-0.04910737853685418
-0.055113833384021975
-0.060460387180015125
-0.06493855455079268
-0.06839276573705308
-0.07073795376391362
-0.07196820257473655
-0.07215480773443025
-0.07143408674520997
-0.06998705113845131
-0.06801441083611207
-0.06571110624898097
-0.0632444484643218
-0.06073892831906412
-0.05826905969841173
-0.055859747003615026
-0.05349216113674443
-0.051112371776779714
-0.04864013459027431
-0.04597607285368339
-0.043006678875824905
-0.039607798840503736
-0.03564827978169307
-0.030995908175865255
-0.025527379435633147
-0.019142805224331243
-0.011783537026152213
-0.003450441947035824
0.005781214325557595
0.015754131554610203
0.026231528761993986
0.036911271554212075
0.04745103896669595
0.05750198044641566
0.06674652578494068
0.07493487127879518
0.08191452529169668
0.08764819607092159
0.09221697656802516
0.09580789294301145
0.09868715258088685
0.10116253883756902
0.10353997787700746
0.10608000349524163
0.10895950690569003
0.11224295749192104
0.11586572250944618
0.11963076009705888
0.12321909568599171
0.1262139475221438
0.12813761758229011
0.12849886496535698
0.12684653579327806
0.12282340592787586
0.11621328654192858
0.10697487054126571
0.09525744111117791
0.08139596071157579
0.06588574294661964
0.049339559329712936
0.03243241672263243
0.015841092293525167
0.00018640141141678215
-0.014014386681667252
-0.026379660373475326
-0.03667779504676649
-0.0448244333940998
-0.0508658709050895
-0.05495318306299537
-0.05731212698898614
-0.058213211319669944
-0.057945013621068964
-0.056792405603024426
-0.05502026691955427
-0.052862555753975644
-0.05051600755808977
-0.04813718385702747
-0.045841377118446214
-0.04370228432324565
-0.04175229232284235
-0.039984223367871094
-0.03835601677771773
-0.03679985813428818
-0.035236722454213915
-0.03359630346064579
-0.03184102337338375
-0.02999142414602254
-0.0281489431536258
-0.026511159528940408
-0.025374338815164033
-0.02511869127568706
-0.02617332593482591
-0.028960489610400316
-0.0338221193748267
-0.040935398431862294
-0.05022707950761589
-0.06129816734455815
-0.07337077986307353
-0.08526755073399674
-0.09543095559978196
-0.10198584268985447
-0.10284376700077598
-0.09584304465126993
-0.07891440220448212
-0.05025937767388475
-0.008527728536087964
0.04701894212832777
0.11636778534739396
0.19864711719331044
0.29205600456798336
0.3938359534478558
0.5002915337401422
0.6068702860644399
0.7083151099221449
0.7989014265663297
0.8727641724104356
0.9243054655606784
0.9486546986427995
0.9421335320020907
0.9026647955905173
0.8300619394679142
0.7261469587217058
0.5946683972215316
0.4410223189133321
0.27181110179458634
0.09430035519164977
-0.08415240657392993
-0.2566249251569029
-0.41705520876025415
-0.560529478822879
-0.6834237714931173
-0.7834124249299287
-0.8593722447370774
-0.9112183999162383
-0.9397079828691451
-0.9462418989502948
-0.9326876433884764
-0.9012362715066907
-0.8542976705277544
-0.7944301500555166
-0.7242943044248784
-0.6466176978471673
-0.5641565366824384
-0.47964319643641057
-0.395713851067696
-0.3148174276024854
-0.23911404162576844
-0.1703761718192348
-0.10990774998363681
-0.05849463454516658
-0.016395156373145186
0.01662713129425008
0.04123305333646175
0.05840956987523806
0.06935630543557736
0.07536967822347815
0.0777356820238878
0.07763954831219248
0.07609746261629162
0.07391272280400263
0.07165640399463108
0.0696707467535569
0.0680920211008332
0.06688840381889893
0.06590740600162898
0.06492679758910533
0.06370308502476145
0.06201247523794571
0.05968066963973189
0.056599497879643204
0.0527302061476068
0.048095077797504104
0.04276073979774917
0.036817615801688096
0.030360196459050175
0.023472011859504968
0.016217629498257793
0.008642125836456818
0.0007767877707819069
-0.007351338945162913
-0.015708833840098295
-0.024246694293928447
-0.03289433032588942
-0.04155791340677387
-0.050123764868970876
-0.05846689446947014
-0.0664637752184167
-0.07400707675752573
-0.0810190079044791
-0.08745983195496747
-0.09332924238677337
-0.09866023213100718
-0.10350711962533975
-0.10793084370612631
-0.11198514875405462
-0.11570678385398875
-0.11911149103137966
-0.1221957286838594
-0.1249423313674009
-0.12732726442447512
-0.12932466460098727
-0.13090833183845274
-0.1320492161266029
-0.13270971566008258
-0.13283656094971524
-0.13235465162900245
-0.13116428649369896
-0.12914358963382647
-0.1261566267200273
-0.12206610237267887
-0.11674818494709645
-0.11010641607191188
-0.10208207313442122
-0.09265961640689069
-0.08186747026221382
-0.06977576135253169
-0.05649330709231696
-0.042165899596162945
-0.02697686561542861
-0.01114942596412095
0.005050939786682752
0.021316721607410126
0.03730392550987544
0.052645049961903695
0.06697022737649581
0.07993526886048873
0.09125322011828982
0.10072446938620279
0.1082599264759461
0.11389241947522682
0.11777316276924385
0.12015277049553197
0.12134937402716937
0.12170915193238763
0.12156612857038378
0.12120794134672043
0.12085253797358612
0.12063809631820063
0.12062566669486226
0.12081170901437568
0.12114615583974296
0.12155110660275054
0.12193590892023029
0.12220610846217012
0.12226607475144945
0.12201731334769007
0.12135585209111607
0.12017225172457967
0.11835680192415089
0.11581071816339114
0.11246216994639964
0.10828421702078067
0.10331053514087607
0.09764442222960602
0.09145726627631291
0.08497462116247764
0.07845104710884411
0.07213808779395209
0.06625200092198492
0.06094822831966767
0.056307872801445925
0.052338125703856035
0.048984683735696075
0.04615106332856613
0.0437185829344348
0.04156205302295116
0.03955917747839305
0.03759485606594424
0.03556356717933229
0.03337312320620112
0.03095154457581892
0.02825643709880491
0.02528416085441664
0.022075144612679926
0.018712264832773714
0.015310973936410836
0.01200216184335312
0.008910843443922315
0.006135077911199628
0.0037296662761687506
0.0016980698773302742
-6.071783868025065e-06
-0.0014688394406566698
-0.002800318676521828
-0.004117205321470733
-0.00552751904182115
-0.007120186587431961
-0.008960750969480723
-0.01109288928332032
-0.013544095673850148
-0.01633297750185785
-0.019475220388504782
-0.02298555418730989
-0.026874128448914195
-0.031137426412438517
-0.0357457045096716
-0.040630362841514424
-0.04567524989479922
-0.050715527890692114
-0.05554643551901785
-0.059942367803286246
